"ID","Sales"
1,5704.371715408455
2,5703.926676830026
3,5703.481638251596
4,5703.036599673167
5,5702.337894104388
6,5701.902139430804
7,5701.457100852374
8,5701.012062273945
9,5700.567023695516
10,5700.12198511709
11,5699.676946538657
12,5698.984660396516
13,5698.5489057229315
14,5698.110081965107
15,5697.665043386678
16,5697.220004808249
17,5696.774966229819
18,5696.3299276513935
19,5695.631222082615
20,5695.195467409027
21,5694.750428830601
22,5694.3053902521715
23,5693.860351673742
24,5693.415313095313
25,5692.970274516883
26,5692.277988374739
27,5691.842233701154
28,5691.403614549359
29,5690.95857597093
30,5690.5135373925
31,5690.068498814071
32,5689.623460235645
33,5688.924754666867
34,5688.488999993282
35,5688.043961414849
36,5687.598922836423
37,5687.153884257994
38,5686.708845679565
39,5686.263807101135
40,5685.571520958991
41,5685.135766285406
42,5684.697147133611
43,5684.252108555182
44,5683.807069976752
45,5683.362031398323
46,5682.9169928198935
47,5682.218287251115
48,5681.782532577534
49,5737.228306173987
50,5736.7832675955615
51,5736.338229017132
52,5735.893190438703
53,5735.194484869924
54,5734.7587301963395
55,5734.31369161791
56,5733.868653039481
57,5733.423614461051
58,5732.978575882622
59,5732.533537304196
60,5731.841251162052
61,5731.4054964884635
62,5730.966877336668
63,5730.521838758243
64,5730.076800179813
65,5729.631761601384
66,5729.1867230229545
67,5728.488017454176
68,5728.052262780591
69,5727.607224202162
70,5727.1621856237325
71,5726.717147045303
72,5726.272108466874
73,5725.827069888448
74,5725.134783746304
75,5724.699029072719
76,5724.26040992092
77,5723.8153713424945
78,5723.370332764065
79,5722.925294185636
80,5722.480255607206
81,5721.781550038428
82,5721.345795364843
83,5720.900756786414
84,5720.455718207984
85,5720.010679629555
86,5719.5654364451
87,5719.120397866671
88,5718.428316330555
89,5717.992561656971
90,5717.553737899147
91,5717.108699320717
92,5716.663660742288
93,5716.2186221638585
94,5715.773583585429
95,5715.0750826226795
96,5714.639327949095
97,5936.375149138203
98,5935.930110559773
99,5935.485071981344
100,5935.040033402915
101,5934.341327834136
102,5933.905573160551
103,5933.460534582122
104,5933.0154960036925
105,5932.570457425263
106,5932.125418846837
107,5931.680380268404
108,5930.988094126264
109,5930.552339452679
110,5930.113720300884
111,5929.6686817224545
112,5929.223643144025
113,5928.778604565596
114,5928.333565987166
115,5927.634860418391
116,5927.199105744803
117,5926.753862560348
118,5926.308823981919
119,5925.86378540349
120,5925.41874682506
121,5924.973708246631
122,5924.281626710515
123,5923.845872036931
124,5923.407048279107
125,5922.962009700677
126,5922.516971122248
127,5922.071932543819
128,5921.626893965393
129,5920.928393002643
130,5920.492638329055
131,5920.0473951445965
132,5919.602356566171
133,5919.157317987741
134,5918.712279409312
135,5918.267240830883
136,5917.575159294767
137,5917.139404621179
138,5916.7005808633585
139,5916.255542284929
140,5915.8105037065
141,5915.36546512807
142,5914.920426549641
143,5914.221925586895
144,5913.786170913307
145,5755.649178362015
146,5755.204139783586
147,5754.759101205156
148,5754.314062626727
149,5753.615357057952
150,5753.1796023843635
151,5752.734563805938
152,5752.289525227505
153,5751.844486649079
154,5751.39944807065
155,5750.95440949222
156,5750.262123350076
157,5749.826368676491
158,5749.3877495246925
159,5748.942710946267
160,5748.497672367837
161,5748.052633789408
162,5747.607595210979
163,5746.908889642204
164,5746.473134968615
165,5746.027891784161
166,5745.582853205731
167,5745.137814627302
168,5744.6927760488725
169,5744.247737470443
170,5743.555655934328
171,5743.119901260743
172,5742.681077502919
173,5742.23603892449
174,5741.79100034606
175,5741.345961767631
176,5740.900923189201
177,5740.202422226455
178,5739.766667552867
179,5739.321424368412
180,5738.876385789983
181,5738.431347211554
182,5737.986308633124
183,5737.541270054695
184,5736.8491885185795
185,5736.413433844995
186,5735.974610087171
187,5735.529571508741
188,5735.084532930312
189,5734.639494351883
190,5734.194455773453
191,5733.495954810704
192,5733.060200137119
193,5732.438547788035
194,5731.993509209609
195,5731.548470631176
196,5731.103432052751
197,5730.404726483972
198,5729.968971810387
199,5729.523933231958
200,5729.078894653529
201,5728.633856075099
202,5728.18881749667
203,5727.743778918244
204,5727.0514927761
205,5726.615738102511
206,5726.177118950716
207,5725.732080372287
208,5725.287041793861
209,5724.842003215428
210,5724.396964637002
211,5723.698259068224
212,5723.262504394639
213,5722.81746581621
214,5722.37242723778
215,5721.927388659351
216,5721.482350080922
217,5721.037311502492
218,5720.345025360351
219,5719.909270686763
220,5719.470651534968
221,5719.025612956539
222,5718.580574378109
223,5718.13553579968
224,5717.690497221254
225,5716.9917916524755
226,5716.556036978891
227,5716.1109984004615
228,5715.665959822032
229,5715.220921243603
230,5714.775678059148
231,5714.330639480719
232,5713.6385579446
233,5713.202803271015
234,5712.7639795131945
235,5712.318940934765
236,5711.873902356336
237,5711.428863777906
238,5710.983825199477
239,5710.285324236727
240,5709.849569563143
241,5721.346528948732
242,5720.901490370299
243,5720.456451791873
244,5720.011413213444
245,5719.312707644665
246,5718.876952971081
247,5718.431914392651
248,5717.986875814222
249,5717.541837235796
250,5717.096798657367
251,5716.6517600789375
252,5715.959473936793
253,5715.5237192632085
254,5715.08510011141
255,5714.640061532984
256,5714.194818348526
257,5713.749779770096
258,5713.3047411916705
259,5712.606035622892
260,5712.170280949304
261,5711.725242370878
262,5711.280203792448
263,5710.835165214019
264,5710.39012663559
265,5709.94508805716
266,5709.252801915016
267,5708.817047241431
268,5708.378428089636
269,5707.933389511207
270,5707.488350932777
271,5707.043312354348
272,5706.598273775922
273,5705.899568207144
274,5705.463813533555
275,5705.01877495513
276,5704.5737363767
277,5704.128697798271
278,5703.6836592198415
279,5703.238620641412
280,5702.546334499268
281,5702.110579825683
282,5701.671960673888
283,5701.226922095459
284,5700.781883517029
285,5700.3368449386
286,5699.89180636017
287,5699.193100791395
288,5698.757346117807
289,5442.885413148324
290,5442.440374569895
291,5441.995335991465
292,5441.550297413036
293,5440.851591844257
294,5440.415837170673
295,5439.970798592243
296,5439.525760013814
297,5439.080721435388
298,5438.635682856955
299,5438.190644278529
300,5437.498358136385
301,5437.0626034628
302,5436.623984311005
303,5436.178945732576
304,5435.733907154146
305,5435.288868575717
306,5434.843829997288
307,5434.145124428509
308,5433.709369754924
309,5433.26412657047
310,5432.81908799204
311,5432.374049413611
312,5431.9290108351815
313,5431.483972256752
314,5430.791890720637
315,5430.356136047052
316,5429.917312289228
317,5429.472273710799
318,5429.027235132369
319,5428.58219655394
320,5428.1371579755105
321,5427.438657012761
322,5427.002902339176
323,5426.5576591547215
324,5426.112620576292
325,5425.667581997863
326,5425.222543419433
327,5424.777504841004
328,5424.0854233048885
329,5423.649668631304
330,5423.21084487348
331,5422.76580629505
332,5422.320767716621
333,5421.875729138192
334,5421.430690559766
335,5420.732189597016
336,5420.296434923428
337,5578.185494126548
338,5577.740455548123
339,5577.295416969693
340,5576.850378391264
341,5576.151672822489
342,5575.7159181489005
343,5575.270879570471
344,5574.825840992042
345,5574.380802413616
346,5573.935763835187
347,5573.490725256757
348,5572.798439114613
349,5572.362684441025
350,5571.9240652892295
351,5571.4790267108
352,5571.033988132374
353,5570.588949553945
354,5570.143910975516
355,5569.445205406741
356,5569.009450733152
357,5568.564207548694
358,5568.119168970268
359,5567.674130391839
360,5567.2290918134095
361,5566.78405323498
362,5566.091971698865
363,5565.656217025276
364,5565.217393267456
365,5564.7723546890265
366,5564.327316110597
367,5563.882277532168
368,5563.437238953738
369,5562.738737990992
370,5562.302983317404
371,5561.857740132946
372,5561.41270155452
373,5560.967662976091
374,5560.522624397661
375,5560.077585819232
376,5559.3855042831165
377,5558.949749609528
378,5558.510925851708
379,5558.065887273278
380,5557.620848694849
381,5557.175810116423
382,5556.73077153799
383,5556.032270575241
384,5555.596515901656
385,5910.26194549245
386,5909.81690691402
387,5909.371868335591
388,5908.926625151136
389,5908.228124188387
390,5907.792369514798
391,5907.347126330344
392,5906.902087751914
393,5906.457049173485
394,5906.0120105950555
395,5905.566972016626
396,5904.874890480511
397,5904.439135806926
398,5904.000312049102
399,5903.555273470676
400,5903.110234892243
401,5902.665196313817
402,5902.220157735388
403,5901.521656772638
404,5901.08590209905
405,5900.640658914595
406,5900.195620336166
407,5899.750581757737
408,5899.305543179307
409,5898.860504600878
410,5898.1684230647625
411,5897.732668391178
412,5897.293844633354
413,5896.848806054928
414,5896.403767476495
415,5895.958728898069
416,5895.513690319636
417,5894.81518935689
418,5894.36749571047
419,5893.934191498847
420,5893.489152920418
421,5893.0441143419885
422,5892.599075763559
423,5892.154037185133
424,5891.461955649014
425,5891.016917070585
426,5890.5873772176055
427,5890.142338639176
428,5889.697300060747
429,5889.252261482321
430,5888.807222903888
431,5888.108721941142
432,5887.672967267554
433,5854.0588554587885
434,5853.613816880359
435,5853.16877830193
436,5852.7237397235
437,5852.025034154725
438,5851.589279481141
439,5851.144240902711
440,5850.699202324282
441,5850.254163745853
442,5849.809125167423
443,5849.364086588994
444,5848.671800446853
445,5848.236045773265
446,5847.79742662147
447,5847.35238804304
448,5846.907349464611
449,5846.462310886185
450,5846.017272307752
451,5845.318566738977
452,5844.8828120653925
453,5844.4377734869595
454,5843.992734908534
455,5843.547696330104
456,5843.102657751675
457,5842.657619173246
458,5841.965333031101
459,5841.529578357517
460,5841.090959205721
461,5840.645920627292
462,5840.200882048863
463,5839.755843470437
464,5839.310804892008
465,5838.612099323229
466,5838.176344649644
467,5837.731306071211
468,5837.286267492786
469,5836.841228914356
470,5836.395985729898
471,5835.950947151472
472,5835.258865615353
473,5834.823110941768
474,5834.384287183948
475,5833.939248605515
476,5833.494210027089
477,5833.04917144866
478,5832.60413287023
479,5831.905631907481
480,5831.469877233896
481,5617.644109577319
482,5617.1990709988895
483,5616.75403242046
484,5616.308993842034
485,5615.610288273256
486,5615.174533599671
487,5614.729495021242
488,5614.284456442812
489,5613.839417864383
490,5613.394379285954
491,5612.949340707524
492,5612.257054565383
493,5611.821299891795
494,5611.38268074
495,5610.937642161571
496,5610.492603583141
497,5610.047565004716
498,5609.602526426286
499,5608.9038208575075
500,5608.468066183923
501,5608.022822999465
502,5607.577784421039
503,5607.132745842606
504,5606.68770726418
505,5606.242668685751
506,5605.550587149632
507,5605.114832476047
508,5604.6760087182265
509,5604.2309701397935
510,5603.785931561368
511,5603.340892982938
512,5602.895854404509
513,5602.197353441759
514,5601.761598768175
515,5601.316355583716
516,5600.871317005291
517,5600.426278426861
518,5599.981239848432
519,5599.5362012700025
520,5598.844119733883
521,5598.408365060299
522,5597.969541302478
523,5597.524502724045
524,5597.07946414562
525,5596.63442556719
526,5596.189386988761
527,5595.490886026011
528,5595.0551313524265
529,5722.799434306093
530,5722.354395727663
531,5721.909357149234
532,5721.464318570805
533,5720.765613002026
534,5720.329858328441
535,5719.884615143987
536,5719.439576565557
537,5718.994537987128
538,5718.5494994086985
539,5718.104460830269
540,5717.412379294154
541,5716.976624620569
542,5716.537800862745
543,5716.0927622843155
544,5715.647723705886
545,5715.20268512746
546,5714.757646549027
547,5714.059145586278
548,5713.623390912693
549,5713.178147728238
550,5712.733109149809
551,5712.28807057138
552,5711.84303199295
553,5711.397993414521
554,5710.7059118784055
555,5710.270157204821
556,5709.831333446997
557,5709.386294868567
558,5708.941256290138
559,5708.496217711709
560,5708.051179133283
561,5707.3526781705295
562,5706.916923496945
563,5706.47168031249
564,5706.026641734061
565,5705.5816031556315
566,5705.136564577202
567,5704.691525998773
568,5703.999444462657
569,5703.563689789073
570,5703.1248660312485
571,5702.679827452819
572,5702.23478887439
573,5701.78975029596
574,5701.344711717535
575,5700.646210754781
576,5700.210456081197
577,5696.45592890909
578,5696.010890330661
579,5695.5658517522315
580,5695.120813173802
581,5694.422107605027
582,5693.986352931439
583,5693.5413143530095
584,5693.09627577458
585,5692.651237196154
586,5692.206198617721
587,5691.761160039296
588,5691.068873897151
589,5690.633119223567
590,5690.194500071768
591,5689.749461493342
592,5689.304422914909
593,5688.859384336483
594,5688.414345758054
595,5687.715640189275
596,5687.279885515691
597,5686.834846937261
598,5686.389808358832
599,5685.944769780406
600,5685.499731201973
601,5685.054692623547
602,5684.362406481403
603,5683.926651807818
604,5683.48803265602
605,5683.042994077594
606,5682.597955499161
607,5682.152916920735
608,5681.707878342306
609,5681.009172773527
610,5680.5734180999425
611,5680.128379521513
612,5679.683340943084
613,5679.238302364654
614,5678.7930591802
615,5678.34802060177
616,5677.655939065655
617,5677.22018439207
618,5676.781360634246
619,5676.336322055817
620,5675.891283477387
621,5675.446244898958
622,5675.001206320532
623,5674.302705357779
624,5673.866950684194
625,5876.770630283863
626,5876.325591705434
627,5875.8805531270045
628,5875.435309942546
629,5874.7368089797965
630,5874.301054306212
631,5873.855811121757
632,5873.410772543328
633,5872.965733964898
634,5872.520695386469
635,5872.07565680804
636,5871.383575271924
637,5870.94782059834
638,5870.5089968405155
639,5870.063958262086
640,5869.618919683657
641,5869.173881105227
642,5868.728842526798
643,5868.030341564048
644,5867.594586890464
645,5867.149343706009
646,5866.704305127576
647,5866.25926654915
648,5865.814227970721
649,5865.369189392291
650,5864.677107856176
651,5864.241353182591
652,5863.802529424767
653,5863.357490846338
654,5862.9124522679085
655,5862.467413689479
656,5862.022375111053
657,5861.3238741483
658,5860.87618050188
659,5860.442876290261
660,5859.997837711828
661,5859.552799133402
662,5859.107760554973
663,5858.662721976543
664,5857.970640440428
665,5857.534885766843
666,5857.096062009019
667,5856.65102343059
668,5856.20598485216
669,5855.760946273731
670,5855.315907695305
671,5854.617406732552
672,5854.181652058967
673,5936.666415803567
674,5936.221377225138
675,5935.776338646709
676,5935.331300068283
677,5934.632594499504
678,5934.19683982592
679,5933.751596641461
680,5933.3065580630355
681,5932.8615194846025
682,5932.416480906177
683,5931.971442327747
684,5931.279360791628
685,5930.843606118044
686,5930.404782360223
687,5929.95974378179
688,5929.514705203364
689,5929.069666624935
690,5928.624628046506
691,5927.926127083756
692,5927.490372410171
693,5927.045129225713
694,5926.600090647284
695,5926.155052068854
696,5925.7100134904285
697,5925.2649749119955
698,5924.57289337588
699,5924.1371387022955
700,5923.698314944475
701,5923.253276366042
702,5922.808237787616
703,5922.363199209187
704,5921.9181606307575
705,5921.219659668008
706,5920.783904994423
707,5920.338661809965
708,5919.8936232315355
709,5919.448584653106
710,5919.00354607468
711,5918.558507496247
712,5917.866425960132
713,5917.430671286547
714,5916.991847528727
715,5916.546808950294
716,5916.101770371868
717,5915.656731793435
718,5915.211693215009
719,5914.51319225226
720,5914.077437578675
721,5672.344700006022
722,5671.899661427593
723,5671.454622849164
724,5671.009379664709
725,5670.3108787019555
726,5669.875124028371
727,5669.429880843916
728,5668.984842265487
729,5668.539803687057
730,5668.094765108628
731,5667.649726530199
732,5666.957644994083
733,5666.521890320499
734,5666.0830665626745
735,5665.638027984245
736,5665.192989405819
737,5664.747950827386
738,5664.302912248961
739,5663.604411286207
740,5663.168656612623
741,5662.723413428168
742,5662.278374849739
743,5661.833336271309
744,5661.38829769288
745,5660.9432591144505
746,5660.251177578335
747,5659.81542290475
748,5659.376599146926
749,5658.931560568497
750,5658.486521990071
751,5658.041483411638
752,5657.596444833212
753,5656.897943870463
754,5656.450250224039
755,5656.01694601242
756,5655.57190743399
757,5655.126868855561
758,5654.681830277132
759,5654.236791698702
760,5653.544710162587
761,5653.108955489002
762,5652.670131731178
763,5652.225093152749
764,5651.780054574323
765,5651.33501599589
766,5650.889977417464
767,5650.191476454715
768,5649.755721781126
769,5739.747275442955
770,5739.302236864529
771,5738.857198286099
772,5738.41215970767
773,5737.713454138895
774,5737.277699465307
775,5736.832660886877
776,5736.387622308448
777,5735.942583730022
778,5735.497545151589
779,5735.052506573164
780,5734.360220431019
781,5733.924465757431
782,5733.48564199961
783,5733.040603421181
784,5732.595564842752
785,5732.150526264322
786,5731.705487685893
787,5731.006986723143
788,5730.571232049559
789,5730.1259888651
790,5729.6809502866745
791,5729.235911708245
792,5728.790873129816
793,5728.345834551386
794,5727.653753015271
795,5727.217998341683
796,5726.779174583862
797,5726.334136005433
798,5725.889097427003
799,5725.444058848574
800,5724.999020270145
801,5724.300519307395
802,5723.86476463381
803,5723.419521449356
804,5722.974482870926
805,5722.529444292497
806,5722.0844057140675
807,5721.639367135638
808,5720.947285599519
809,5720.511530925938
810,5720.072707168114
811,5719.627668589685
812,5719.182630011255
813,5718.737591432826
814,5718.2925528543965
815,5717.594051891647
816,5717.158297218062
817,5924.458372301226
818,5924.013333722796
819,5923.568295144367
820,5923.123256565941
821,5922.424550997162
822,5921.988796323574
823,5921.5437577451485
824,5921.098719166719
825,5920.65368058829
826,5920.20864200986
827,5919.763603431431
828,5919.0713172892865
829,5918.635562615702
830,5918.196943463907
831,5917.751904885477
832,5917.306866307048
833,5916.861827728619
834,5916.416789150193
835,5915.718083581414
836,5915.282328907826
837,5914.837290329397
838,5914.392251750971
839,5913.9472131725415
840,5913.502174594112
841,5913.057136015683
842,5912.364849873538
843,5911.929095199954
844,5911.490476048159
845,5911.045437469729
846,5910.6003988913
847,5910.1553603128705
848,5909.710321734441
849,5909.011616165662
850,5908.575861492078
851,5908.130822913648
852,5907.685784335223
853,5907.240745756793
854,5906.795502572335
855,5906.350463993906
856,5905.65838245779
857,5905.2226277842055
858,5904.783804026381
859,5904.338765447952
860,5903.893726869526
861,5903.448688291097
862,5903.0036497126675
863,5902.305148749914
864,5901.869394076333
865,5705.834171383798
866,5705.389132805372
867,5704.944094226939
868,5704.499055648514
869,5703.800350079735
870,5703.36459540615
871,5702.919556827721
872,5702.474518249292
873,5702.029479670862
874,5701.5844410924365
875,5701.139402514003
876,5700.447116371863
877,5700.011361698274
878,5699.572742546479
879,5699.12770396805
880,5698.682665389624
881,5698.237626811191
882,5697.792588232765
883,5697.093882663987
884,5696.658127990402
885,5696.213089411973
886,5695.768050833543
887,5695.323012255114
888,5694.877973676685
889,5694.432935098259
890,5693.7406489561145
891,5693.304894282526
892,5692.866275130731
893,5692.421236552302
894,5691.976197973876
895,5691.531159395443
896,5691.086120817017
897,5690.3874152482385
898,5689.951660574654
899,5689.506621996225
900,5689.061583417795
901,5688.616544839366
902,5688.171301654911
903,5687.726263076482
904,5687.034181540366
905,5686.598426866778
906,5686.1596031089575
907,5685.714564530528
908,5685.269525952099
909,5684.824487373669
910,5684.37944879524
911,5683.68094783249
912,5683.245193158906
913,5490.240427711637
914,5489.795389133207
