"ID","Sales"
1,7208.02642996324
2,7207.733924889006
3,7207.148914740479
4,7207.002662203333
5,7206.856409666245
6,7206.710157129099
7,7206.563904591952
8,7206.417652054806
9,7206.271399517718
10,7206.125146980572
11,7205.978894443426
12,7205.832641906338
13,7205.393884294957
14,7205.247631757811
15,7205.101379220665
16,7204.955126683519
17,7204.808874146431
18,7204.6626216092845
19,7204.516369072138
20,7204.223863997904
21,7203.93135892367
22,7203.785106386524
23,7203.6388538493775
24,7203.492601312231
25,7203.346348775143
26,7203.053843700851
27,7202.907591163763
28,7202.61508608947
29,7202.468833552382
30,7202.322581015236
31,7202.17632847809
32,7202.030075941002
33,7201.883823403856
34,7201.591318329563
35,7201.445065792475
36,7201.298813255329
37,7201.152560718183
38,7201.006308181095
39,7200.860055643949
40,7200.7138031068025
41,7200.5675505697145
42,7200.421298032568
43,7199.982540421188
44,7199.6900353468955
45,7199.251277735515
46,7199.105025198427
47,7198.958772661281
48,7198.812520124135
49,7198.5200150499
50,7198.373762512754
51,7198.227509975608
52,7198.08125743852
53,7197.935004901374
54,7197.788752364228
55,7197.6424998271395
56,7197.496247289993
57,7197.349994752847
58,7197.203742215701
59,7197.057489678613
60,7196.911237141467
61,7196.6187320672325
62,7196.472479530086
63,7196.32622699294
64,7196.179974455852
65,7196.033721918706
66,7195.88746938156
67,7195.594964307325
68,7195.156206695945
69,7195.009954158799
70,7194.863701621653
71,7194.717449084565
72,7194.571196547418
73,7194.424944010272
74,7193.8399338617455
75,7193.6936813246575
76,7193.547428787511
77,7193.401176250365
78,7193.254923713277
79,7192.8161661018385
80,7192.523661027604
81,7192.377408490458
82,7192.23115595337
83,7192.084903416224
84,7191.938650879078
85,7191.79239834199
86,7191.646145804843
87,7191.353640730609
88,7191.061135656317
89,7190.914883119171
90,7190.768630582083
91,7190.622378044936
92,7190.329872970702
93,7190.03736789641
94,7189.7448628221755
95,7189.598610285029
96,7189.452357747883
97,7189.306105210795
98,7189.159852673649
99,7189.013600136503
100,7188.867347599415
101,7188.428589988034
102,7188.282337450888
103,7188.136084913742
104,7187.843579839508
105,7187.697327302361
106,7187.551074765215
107,7187.404822228127
108,7187.258569690981
109,7187.112317153835
110,7186.966064616747
111,7186.8198120796005
112,7186.673559542454
113,7186.38105446822
114,7186.234801931074
115,7185.94229685684
116,7185.7960443196935
117,7185.649791782547
118,7185.503539245459
119,7185.211034171167
120,7185.064781634021
121,7184.918529096933
122,7184.772276559786
123,7184.62602402264
124,7184.479771485552
125,7184.18726641126
126,7184.041013874172
127,7183.894761337026
128,7183.602256262733
129,7183.456003725645
130,7183.309751188499
131,7183.163498651353
132,7183.017246114265
133,7182.724741039972
134,7182.578488502884
135,7182.432235965738
136,7181.993478354358
137,7181.847225817211
138,7181.700973280065
139,7181.554720742977
140,7181.408468205831
141,7181.262215668685
142,7180.969710594451
143,7180.823458057304
144,7180.677205520216
145,7180.53095298307
146,7180.384700445924
147,7180.238447908778
148,7180.09219537169
149,7179.9459428345435
150,7179.799690297397
151,7179.653437760309
152,7179.360932686017
153,7179.068427611783
154,7178.9221750746365
155,7178.77592253749
156,7178.629670000402
157,7178.33716492611
158,7178.044659851876
159,7177.898407314729
160,7177.605902240495
161,7177.459649703349
162,7177.167144629115
163,7177.020892091969
164,7176.874639554822
165,7176.728387017734
166,7176.582134480588
167,7176.435881943442
168,7176.289629406354
169,7176.143376869208
170,7175.9971243320615
171,7175.850871794915
172,7175.412114183535
173,7175.119609109301
174,7174.973356572154
175,7174.827104035066
176,7174.68085149792
177,7174.534598960774
178,7174.388346423628
179,7174.095841349394
180,7173.949588812247
181,7173.803336275159
182,7173.364578663779
183,7173.218326126633
184,7172.92582105234
185,7172.779568515252
186,7172.633315978106
187,7172.48706344096
188,7172.340810903872
189,7172.194558366726
190,7172.0483058295795
191,7171.9020532924915
192,7171.755800755345
193,7171.609548218199
194,7171.463295681053
195,7171.317043143965
196,7171.170790606819
197,7171.024538069672
198,7170.878285532584
199,7170.732032995438
200,7170.439527921204
201,7170.293275384058
202,7169.854517772677
203,7169.708265235531
204,7169.415760161297
205,7169.1232550870045
206,7168.9770025499165
207,7168.83075001277
208,7168.39199240139
209,7168.245739864244
210,7168.099487327097
211,7167.953234790009
212,7167.660729715717
213,7167.514477178629
214,7167.368224641483
215,7167.221972104337
216,7167.075719567249
217,7166.783214492956
218,7166.63696195581
219,7166.490709418722
220,7166.1982043444295
221,7166.0519518073415
222,7165.905699270195
223,7165.759446733049
224,7165.1744365845225
225,7165.0281840474345
226,7164.881931510288
227,7164.735678973142
228,7164.589426436054
229,7164.443173898908
230,7164.296921361762
231,7164.150668824674
232,7164.004416287527
233,7163.858163750381
234,7163.711911213235
235,7163.565658676147
236,7163.419406139001
237,7163.126901064767
238,7162.98064852762
239,7162.834395990474
240,7162.688143453386
241,7162.54189091624
242,7162.2493858419475
243,7162.1031333048595
244,7161.956880767713
245,7161.810628230567
246,7161.518123156333
247,7161.371870619187
248,7160.933113007806
249,7160.640607933572
250,7160.494355396426
251,7160.201850322192
252,7160.055597785045
253,7159.909345247899
254,7159.763092710811
255,7159.470587636519
256,7159.324335099431
257,7159.1780825622845
258,7159.031830025138
259,7158.885577487992
260,7158.739324950904
261,7158.593072413758
262,7158.446819876612
263,7158.300567339524
264,7158.1543148023775
265,7158.008062265231
266,7157.861809728143
267,7157.715557190997
268,7157.569304653851
269,7157.423052116705
270,7157.276799579617
271,7156.984294505324
272,7156.838041968236
273,7156.69178943109
274,7156.545536893944
275,7156.399284356856
276,7156.25303181971
277,7156.106779282563
278,7155.814274208329
279,7155.668021671183
280,7155.2292640598025
281,7154.936758985568
282,7154.790506448422
283,7154.49800137413
284,7154.351748837042
285,7154.2054962998955
286,7154.059243762749
287,7153.912991225661
288,7153.766738688515
289,7153.620486151369
290,7153.035476002842
291,7152.889223465754
292,7152.742970928608
293,7152.596718391462
294,7152.157960780081
295,7151.865455705847
296,7151.719203168701
297,7151.572950631555
298,7151.426698094467
299,7151.2804455573205
300,7150.987940483086
301,7150.84168794594
302,7150.695435408794
303,7150.549182871706
304,7150.40293033456
305,7150.110425260267
306,7149.964172723179
307,7149.817920186033
308,7149.232910037506
309,7149.086657500418
310,7148.940404963272
311,7148.794152426126
312,7148.647899889038
313,7148.501647351892
314,7148.3553948147455
315,7148.209142277599
316,7148.062889740511
317,7147.916637203365
318,7147.770384666219
319,7147.624132129131
320,7147.477879591985
321,7147.3316270548385
322,7147.1853745177505
323,7147.039121980604
324,7146.746616906312
325,7146.600364369224
326,7146.454111832078
327,7146.161606757843
328,7146.015354220697
329,7145.869101683551
330,7145.722849146463
331,7145.576596609317
332,7145.430344072171
333,7145.284091535024
334,7145.137838997936
335,7144.99158646079
336,7144.845333923644
337,7144.699081386556
338,7144.55282884941
339,7143.821566163737
340,7143.675313626649
341,7143.529061089503
342,7143.090303478122
343,7142.944050940976
344,7142.797798403888
345,7142.651545866742
346,7142.505293329596
347,7142.359040792449
348,7142.212788255361
349,7142.066535718215
350,7141.920283181069
351,7141.627778106835
352,7141.4815255696885
353,7141.3352730326005
354,7141.189020495454
355,7141.042767958308
356,7140.750262884074
357,7140.4577578097815
358,7140.165252735547
359,7140.019000198401
360,7139.872747661313
361,7139.726495124167
362,7139.433990049874
363,7139.287737512786
364,7139.14148497564
365,7138.995232438494
366,7138.70272736426
367,7138.410222290026
368,7137.825212141499
369,7137.3864545301185
370,7137.240201992972
371,7137.093949455826
372,7136.947696918738
373,7136.801444381592
374,7136.508939307358
375,7136.362686770211
376,7136.216434233065
377,7136.070181695919
378,7135.777676621685
379,7135.485171547451
380,7135.338919010304
381,7135.192666473158
382,7135.04641393607
383,7134.900161398924
384,7134.753908861778
385,7134.4614037875435
386,7134.315151250397
387,7134.168898713251
388,7134.022646176163
389,7133.876393639017
390,7133.730141101871
391,7133.583888564783
392,7133.4376360276365
393,7133.29138349049
394,7132.998878416256
395,7132.85262587911
396,7132.706373341964
397,7132.560120804876
398,7132.413868267729
399,7132.267615730583
400,7132.121363193495
401,7131.975110656349
402,7131.828858119203
403,7131.536353044969
404,7131.097595433588
405,7130.951342896442
406,7130.805090359296
407,7130.658837822208
408,7130.5125852850615
409,7130.366332747915
410,7130.220080210769
411,7130.073827673681
412,7129.927575136535
413,7129.781322599389
414,7129.635070062301
415,7129.488817525154
416,7129.342564988008
417,7129.19631245092
418,7129.050059913774
419,7128.903807376628
420,7128.757554839482
421,7128.465049765247
422,7128.172544691013
423,7128.026292153867
424,7127.880039616721
425,7127.733787079633
426,7127.5875345424865
427,7127.44128200534
428,7127.295029468252
429,7127.148776931106
430,7127.00252439396
431,7126.710019319726
432,7126.5637667825795
433,7126.125009171199
434,7125.978756634053
435,7125.832504096965
436,7125.686251559819
437,7125.539999022672
438,7125.393746485526
439,7125.247493948438
440,7125.101241411292
441,7124.808736337058
442,7124.662483799912
443,7124.516231262765
444,7124.369978725677
445,7124.223726188531
446,7124.077473651385
447,7123.784968577151
448,7123.6387160400045
449,7123.492463502858
450,7123.34621096577
451,7123.199958428624
452,7123.053705891478
453,7122.761200817244
454,7122.614948280097
455,7122.468695742951
456,7122.322443205863
457,7122.176190668717
458,7122.029938131571
459,7121.883685594483
460,7121.737433057337
461,7121.59118052019
462,7121.444927983102
463,7120.859917834576
464,7120.7136652974295
465,7120.421160223195
466,7120.274907686049
467,7120.128655148903
468,7119.982402611815
469,7119.836150074669
470,7119.6898975375225
471,7118.958634851908
472,7118.812382314762
473,7118.666129777615
474,7118.227372166235
475,7118.081119629089
476,7117.788614554855
477,7117.642362017708
478,7117.49610948062
479,7117.349856943474
480,7117.203604406328
481,7117.05735186924
482,7116.911099332094
483,7116.7648467949475
484,7116.472341720713
485,7116.326089183567
486,7116.179836646421
487,7115.887331572187
488,7115.7410790350405
489,7115.594826497952
490,7115.156068886572
491,7115.009816349426
492,7114.86356381228
493,7114.717311275133
494,7114.571058738045
495,7114.424806200899
496,7114.278553663753
497,7114.132301126665
498,7113.986048589519
499,7113.839796052373
500,7113.693543515285
501,7113.547290978138
502,7113.108533366758
503,7112.962280829612
504,7112.6697757553775
505,7112.377270681085
506,7112.231018143997
507,7112.084765606851
508,7111.938513069705
509,7111.792260532558
510,7111.64600799547
511,7111.499755458324
512,7111.353502921178
513,7111.20725038409
514,7110.914745309798
515,7110.76849277271
516,7110.622240235563
517,7110.329735161271
518,7110.183482624183
519,7110.037230087037
520,7109.7447250128025
521,7109.598472475656
522,7109.45221993851
523,7109.305967401422
524,7109.159714864276
525,7109.01346232713
526,7108.7209572528955
527,7108.574704715749
528,7108.135947104369
529,7107.989694567223
530,7107.697189492988
531,7107.404684418754
532,7107.258431881608
533,7107.112179344462
534,7106.965926807316
535,7106.819674270228
536,7106.673421733081
537,7106.527169195935
538,7106.380916658847
539,7106.234664121701
540,7105.942159047467
541,7105.7959065103205
542,7105.649653973174
543,7105.503401436028
544,5430.784937413933
545,7105.064643824648
546,7104.91839128756
547,7104.772138750413
548,7104.333381139033
549,7104.187128601887
550,7104.040876064741
551,7103.894623527653
552,7103.748370990506
553,7103.455865916272
554,7103.309613379126
555,7103.16336084198
556,7103.017108304892
557,7102.8708557677455
558,7102.724603230599
559,7102.578350693453
560,7102.432098156365
561,7102.285845619219
562,7102.139593082073
563,7101.8470880078385
564,7101.700835470692
565,7101.554582933604
566,7101.262077859312
567,7101.115825322166
568,7100.969572785078
569,7100.823320247931
570,7100.530815173697
571,7100.384562636551
572,7100.238310099405
573,7100.092057562317
574,7099.945805025171
575,7099.799552488024
576,7099.653299950878
577,7099.360794876644
578,7099.06828980241
579,7098.775784728117
580,7098.629532191029
581,7098.483279653883
582,7098.337027116737
583,7098.190774579591
584,7098.044522042503
585,7097.605764431122
586,7097.459511893976
587,7097.31325935683
588,7097.167006819742
589,7096.728249208361
590,7096.581996671215
591,7096.435744134069
592,7096.289491596923
593,7096.143239059835
594,7095.9969865226885
595,7095.850733985542
596,7095.704481448454
597,7095.558228911308
598,7095.411976374162
599,7095.265723837074
600,7095.119471299928
601,7094.9732187627815
602,7094.826966225635
603,7094.680713688547
604,7094.534461151401
605,7094.388208614255
606,7093.803198465786
607,7093.510693391494
608,7093.364440854348
609,7092.779430705879
610,7092.633178168733
611,7092.486925631587
612,7092.340673094499
613,7092.194420557353
614,7091.90191548306
615,7091.755662945972
616,7091.609410408826
617,7091.316905334592
618,7091.170652797446
619,7091.024400260299
620,7090.878147723211
621,7090.731895186065
622,7090.585642648919
623,7090.439390111773
624,7090.293137574685
625,7090.146885037539
626,7089.854379963304
627,7089.708127426158
628,7089.561874889012
629,7089.269369814778
630,7088.976864740485
631,7088.830612203397
632,7088.538107129105
633,7088.391854592017
634,7088.245602054871
635,7087.9530969806365
636,7087.80684444349
637,7087.660591906344
638,7087.514339369198
639,7087.36808683211
640,7086.929329220729
641,7086.636824146437
642,7086.490571609349
643,7086.344319072203
644,7086.051813997969
645,7085.759308923676
646,7085.320551312296
647,7085.0280462380615
648,7084.735541163769
649,7084.589288626681
650,7084.443036089535
651,7084.296783552389
652,7084.150531015242
653,7084.004278478154
654,7083.858025941008
655,7083.711773403862
656,7083.565520866774
657,7083.419268329628
658,7083.126763255394
659,7082.980510718247
660,7082.834258181101
661,7082.688005643955
662,7082.541753106867
663,7082.395500569721
664,7082.2492480325745
665,7082.1029954954865
666,7081.95674295834
667,7081.810490421194
668,7081.664237884106
669,7081.51798534696
670,7081.371732809814
671,7081.2254802726675
672,7080.786722661287
673,7080.640470124199
674,7080.347965049907
675,7080.201712512819
676,7079.909207438526
677,5405.044490879285
678,7079.470449827146
679,7079.32419729
680,7079.177944752912
681,7079.031692215765
682,7078.885439678619
683,7078.739187141531
684,7078.592934604385
685,7078.446682067239
686,7078.3004295300925
687,7078.007924455858
688,7077.861671918712
689,7077.569166844478
690,7077.422914307332
691,7077.276661770244
692,7077.130409233097
693,7076.984156695951
694,7076.545399084571
695,7076.399146547425
696,7076.252894010337
697,7076.10664147319
698,7075.960388936044
699,7075.814136398956
700,7075.66788386181
701,7075.521631324664
702,7075.375378787576
703,7075.2291262504295
704,7074.936621176137
705,7074.790368639049
706,7074.644116101903
707,7074.497863564757
708,7074.351611027669
709,7074.2053584905225
710,7074.059105953376
711,7073.766600879142
712,7073.620348341996
713,7073.327843267762
714,7073.035338193469
715,7072.889085656381
716,7072.742833119235
717,7072.596580582089
718,7072.450328045001
719,7072.304075507855
720,7072.157822970708
721,7072.011570433562
722,7071.865317896474
723,7071.572812822182
724,7071.426560285094
725,7071.2803077479475
726,7071.134055210801
727,7070.987802673713
728,7070.841550136567
729,7070.549045062275
730,7070.402792525187
731,7070.2565399880405
732,7070.110287450894
733,7069.964034913806
734,7069.81778237666
735,7069.671529839514
736,7069.525277302426
737,7069.232772228133
738,7069.086519690987
739,7068.940267153899
740,7068.647762079607
741,7068.501509542519
742,7068.355257005373
743,7067.770246856846
744,7067.6239943197
745,7067.477741782612
746,7067.185236708319
747,7067.038984171231
748,7066.892731634085
749,7066.746479096939
750,7066.453974022705
751,7066.307721485558
752,7065.868963874178
753,7065.722711337032
754,7065.576458799944
755,7065.430206262798
756,7065.283953725651
757,7064.845196114271
758,7064.4064385028905
759,7064.260185965744
760,7064.113933428656
761,7063.96768089151
762,7063.675175817276
763,7063.52892328013
764,7063.2364182058955
765,7063.090165668749
766,7062.797660594457
767,7062.358902983076
768,7062.212650445988
769,7061.920145371696
770,7061.481387760316
771,7061.335135223169
772,7061.188882686081
773,7060.896377611789
774,7060.750125074701
775,7060.603872537555
776,7060.4576200004085
777,7060.3113674633205
778,7060.165114926174
779,7060.018862389028
780,7059.872609851882
781,7059.726357314794
782,7059.580104777648
783,7059.141347166267
784,7058.995094629121
785,7058.702589554887
786,7058.410084480594
787,7058.263831943506
788,7058.11757940636
789,7057.971326869214
790,7057.825074332126
791,7057.3863167207455
792,7056.655054035073
793,7056.5088014979265
794,7056.3625489608385
795,7056.216296423692
796,7056.070043886546
797,7055.923791349458
798,7055.777538812312
799,7055.485033738019
800,7055.338781200931
801,7055.046276126639
802,7054.900023589551
803,7054.753771052405
804,7054.607518515259
805,7054.461265978171
806,7054.315013441024
807,7054.168760903878
808,7054.02250836679
809,7053.730003292498
810,7053.5837507553515
811,7053.4374982182635
812,7053.291245681117
813,7053.144993143971
814,7052.998740606883
815,7052.852488069737
816,7052.706235532591
817,7052.559982995503
818,7052.413730458356
819,7052.26747792121
820,7052.121225384064
821,7051.974972846976
822,7051.682467772684
823,7051.536215235596
824,7051.389962698449
825,7051.243710161303
826,7050.804952549923
827,7050.6587000127765
828,7050.5124474756885
829,7050.366194938542
830,7050.219942401396
831,7049.781184790016
832,7049.634932252928
833,7049.342427178635
834,7049.196174641489
835,7049.049922104401
836,7048.903669567255
837,7048.611164493021
838,7048.464911955874
839,7048.17240688164
840,7047.879901807348
841,5373.161437785195
842,7047.441144195967
843,7047.294891658821
844,7047.148639121733
845,7047.002386584587
846,7046.856134047441
847,7046.709881510353
848,7046.5636289732065
849,7046.41737643606
850,7046.271123898914
851,7045.97861882468
852,7045.686113750446
853,7045.539861213299
854,7045.393608676153
855,7045.247356139065
856,7045.101103601919
857,7262.9651630799635
858,7262.672658005671
859,7262.0876478571445
860,7261.9413953200565
861,7261.79514278291
862,7261.648890245764
863,7261.502637708676
864,7261.35638517153
865,7261.210132634384
866,7261.063880097296
867,7260.917627560149
868,7260.771375023003
869,7260.332617411623
870,7260.186364874477
871,7260.040112337389
872,7259.893859800242
873,7259.747607263096
874,7259.601354726008
875,7259.455102188862
876,7259.162597114628
877,7258.870092040335
878,7258.723839503189
879,7258.577586966101
880,7258.431334428955
881,7258.285081891809
882,7257.992576817574
883,7257.846324280428
884,7257.553819206194
885,7257.407566669048
886,7257.261314131902
887,7257.115061594814
888,7256.968809057667
889,7256.822556520521
890,7256.530051446287
891,7256.383798909141
892,7256.237546372053
893,7256.0912938349065
894,7255.94504129776
895,7255.798788760614
896,7255.652536223526
897,7255.50628368638
898,7255.360031149234
899,7254.921273537853
900,7254.628768463619
901,7254.190010852239
902,7254.043758315092
903,7253.897505777946
904,7253.751253240858
905,7253.458748166566
906,7253.312495629478
907,7253.166243092332
908,7253.019990555185
909,7252.873738018039
910,7252.727485480951
911,7252.581232943805
912,7252.434980406659
913,7252.288727869571
